# Interband TM absorption spectrum (alpha_TM vs E)
# E(eV)  alpha(cm^-1)
  1.00000000E+00    3.29496053E+01
  1.00753769E+00    3.32096704E+01
  1.01507538E+00    3.34782123E+01
  1.02261307E+00    3.37554644E+01
  1.03015075E+00    3.40416721E+01
  1.03768844E+00    3.43370933E+01
  1.04522613E+00    3.46419991E+01
  1.05276382E+00    3.49566743E+01
  1.06030151E+00    3.52814184E+01
  1.06783920E+00    3.56165464E+01
  1.07537688E+00    3.59623894E+01
  1.08291457E+00    3.63192958E+01
  1.09045226E+00    3.66876320E+01
  1.09798995E+00    3.70677839E+01
  1.10552764E+00    3.74601574E+01
  1.11306533E+00    3.78651804E+01
  1.12060302E+00    3.82833034E+01
  1.12814070E+00    3.87150015E+01
  1.13567839E+00    3.91607755E+01
  1.14321608E+00    3.96211540E+01
  1.15075377E+00    4.00966945E+01
  1.15829146E+00    4.05879863E+01
  1.16582915E+00    4.10956517E+01
  1.17336683E+00    4.16203489E+01
  1.18090452E+00    4.21627740E+01
  1.18844221E+00    4.27236642E+01
  1.19597990E+00    4.33037999E+01
  1.20351759E+00    4.39040089E+01
  1.21105528E+00    4.45251690E+01
  1.21859296E+00    4.51682121E+01
  1.22613065E+00    4.58341281E+01
  1.23366834E+00    4.65239698E+01
  1.24120603E+00    4.72388573E+01
  1.24874372E+00    4.79799836E+01
  1.25628141E+00    4.87486204E+01
  1.26381910E+00    4.95461248E+01
  1.27135678E+00    5.03739460E+01
  1.27889447E+00    5.12336335E+01
  1.28643216E+00    5.21268456E+01
  1.29396985E+00    5.30553587E+01
  1.30150754E+00    5.40210786E+01
  1.30904523E+00    5.50260514E+01
  1.31658291E+00    5.60724771E+01
  1.32412060E+00    5.71627238E+01
  1.33165829E+00    5.82993442E+01
  1.33919598E+00    5.94850933E+01
  1.34673367E+00    6.07229491E+01
  1.35427136E+00    6.20161350E+01
  1.36180905E+00    6.33681453E+01
  1.36934673E+00    6.47827744E+01
  1.37688442E+00    6.62641491E+01
  1.38442211E+00    6.78167655E+01
  1.39195980E+00    6.94455310E+01
  1.39949749E+00    7.11558116E+01
  1.40703518E+00    7.29534872E+01
  1.41457286E+00    7.48450130E+01
  1.42211055E+00    7.68374921E+01
  1.42964824E+00    7.89387572E+01
  1.43718593E+00    8.11574672E+01
  1.44472362E+00    8.35032172E+01
  1.45226131E+00    8.59866681E+01
  1.45979899E+00    8.86196977E+01
  1.46733668E+00    9.14155781E+01
  1.47487437E+00    9.43891850E+01
  1.48241206E+00    9.75572454E+01
  1.48994975E+00    1.00938633E+02
  1.49748744E+00    1.04554723E+02
  1.50502513E+00    1.08429812E+02
  1.51256281E+00    1.12591641E+02
  1.52010050E+00    1.17072013E+02
  1.52763819E+00    1.21907566E+02
  1.53517588E+00    1.27140718E+02
  1.54271357E+00    1.32820847E+02
  1.55025126E+00    1.39005765E+02
  1.55778894E+00    1.45763587E+02
  1.56532663E+00    1.53175111E+02
  1.57286432E+00    1.61336892E+02
  1.58040201E+00    1.70365239E+02
  1.58793970E+00    1.80401499E+02
  1.59547739E+00    1.91619106E+02
  1.60301508E+00    2.04233144E+02
  1.61055276E+00    2.18513517E+02
  1.61809045E+00    2.34803407E+02
  1.62562814E+00    2.53545680E+02
  1.63316583E+00    2.75321488E+02
  1.64070352E+00    3.00908204E+02
  1.64824121E+00    3.31368943E+02
  1.65577889E+00    3.68195763E+02
  1.66331658E+00    4.13547754E+02
  1.67085427E+00    4.70661996E+02
  1.67839196E+00    5.44563131E+02
  1.68592965E+00    6.43055742E+02
  1.69346734E+00    7.89141506E+02
  1.70100503E+00    9.65415344E+02
  1.70854271E+00    1.25076752E+03
  1.71608040E+00    1.71787305E+03
  1.72361809E+00    2.51586214E+03
  1.73115578E+00    3.85906169E+03
  1.73869347E+00    9.18164916E+03
  1.74623116E+00    4.98645708E+03
  1.75376884E+00    4.43110792E+03
  1.76130653E+00    4.75780024E+03
  1.76884422E+00    9.46261964E+03
  1.77638191E+00    4.91041497E+03
  1.78391960E+00    4.87489216E+03
  1.79145729E+00    8.35433724E+03
  1.79899497E+00    5.30420074E+03
  1.80653266E+00    5.35417186E+03
  1.81407035E+00    6.46627341E+03
  1.82160804E+00    1.56887790E+04
  1.82914573E+00    6.00160259E+03
  1.83668342E+00    4.37638854E+03
  1.84422111E+00    3.62396522E+03
  1.85175879E+00    3.70183763E+03
  1.85929648E+00    4.46251517E+03
  1.86683417E+00    8.88984153E+03
  1.87437186E+00    4.08051417E+03
  1.88190955E+00    3.46969144E+03
  1.88944724E+00    3.48995652E+03
  1.89698492E+00    6.36793919E+03
  1.90452261E+00    3.23938923E+03
  1.91206030E+00    2.84002199E+03
  1.91959799E+00    2.87571910E+03
  1.92713568E+00    3.42698389E+03
  1.93467337E+00    4.70369509E+03
  1.94221106E+00    7.07976825E+03
  1.94974874E+00    1.31445409E+04
  1.95728643E+00    1.27510531E+04
  1.96482412E+00    7.23610758E+03
  1.97236181E+00    5.20072645E+03
  1.97989950E+00    4.44848180E+03
  1.98743719E+00    6.54134862E+03
  1.99497487E+00    3.70121288E+03
  2.00251256E+00    2.75777379E+03
  2.01005025E+00    2.24006861E+03
  2.01758794E+00    2.06508384E+03
  2.02512563E+00    2.17772230E+03
  2.03266332E+00    2.62845701E+03
  2.04020101E+00    3.60255045E+03
  2.04773869E+00    5.28166692E+03
  2.05527638E+00    1.45223933E+04
  2.06281407E+00    5.84828502E+03
  2.07035176E+00    3.98178816E+03
  2.07788945E+00    2.87266291E+03
  2.08542714E+00    2.39638637E+03
  2.09296482E+00    2.94035924E+03
  2.10050251E+00    1.99803775E+03
  2.10804020E+00    1.75312599E+03
  2.11557789E+00    1.68801835E+03
  2.12311558E+00    1.79258291E+03
  2.13065327E+00    2.07855925E+03
  2.13819095E+00    2.61676630E+03
  2.14572864E+00    3.57875201E+03
  2.15326633E+00    5.32230647E+03
  2.16080402E+00    8.42409932E+03
  2.16834171E+00    1.39335303E+04
  2.17587940E+00    2.27796698E+04
  2.18341709E+00    9.68862353E+03
  2.19095477E+00    6.19306383E+03
  2.19849246E+00    4.26966742E+03
  2.20603015E+00    3.40010720E+03
  2.21356784E+00    3.35825881E+03
  2.22110553E+00    2.13422911E+03
  2.22864322E+00    1.69199114E+03
  2.23618090E+00    1.43981504E+03
  2.24371859E+00    1.32173827E+03
  2.25125628E+00    1.30618520E+03
  2.25879397E+00    1.39121095E+03
  2.26633166E+00    1.60514877E+03
  2.27386935E+00    2.02227983E+03
  2.28140704E+00    2.80256531E+03
  2.28894472E+00    4.23318988E+03
  2.29648241E+00    6.47469962E+03
  2.30402010E+00    1.71571882E+04
  2.31155779E+00    5.85876334E+03
  2.31909548E+00    3.81947573E+03
  2.32663317E+00    2.61429844E+03
  2.33417085E+00    2.03764710E+03
  2.34170854E+00    1.74619215E+03
  2.34924623E+00    1.33937319E+03
  2.35678392E+00    1.16522474E+03
  2.36432161E+00    1.08761393E+03
  2.37185930E+00    1.08322312E+03
  2.37939698E+00    1.14362955E+03
  2.38693467E+00    1.27519072E+03
  2.39447236E+00    1.50054209E+03
  2.40201005E+00    1.86717444E+03
  2.40954774E+00    2.46891172E+03
  2.41708543E+00    3.49404027E+03
  2.42462312E+00    5.31948734E+03
  2.43216080E+00    8.55581672E+03
  2.43969849E+00    1.40959055E+04
  2.44723618E+00    2.50591755E+04
  2.45477387E+00    1.00946512E+04
  2.46231156E+00    6.31669799E+03
  2.46984925E+00    4.16290750E+03
  2.47738693E+00    3.31465689E+03
  2.48492462E+00    2.11303249E+03
  2.49246231E+00    1.56473643E+03
  2.50000000E+00    1.21368148E+03
